EC-Lab ASCII FILE
Nb header lines : 73                          

Cyclic Voltammetry Advanced

Run on channel : 1 (SN 11259)
User : 
Electrode connection : standard
Ewe ctrl range : min = -10,00 V, max = 10,00 V
Ewe,I filtering : 50 kHz
Safety Limits :
	Do not start on E overload
Channel : Grounded
Acquisition started on : 07/29/2020 10:31:01
Technique started on : 07/29/2020 10:31:03
Saved on :
	File : 2020-07-29 10_30_39 Pt_poly_cv_01_02_CVA_C01.mpr
	Directory : C:\Users\SpectroInlets-eNH3\Desktop\Zilien Data Dir\ixdat_testfiles\2020-07-29 10_30_39 Pt_poly_cv\
	Host : 192.168.1.105
Device : SP-200 (SN 0961)
Address : USB
EC-Lab for windows v11.33 (software)
Internet server v11.32 (firmware)
Command interpretor v11.33 (firmware)
Electrode material : 
Initial state : 
Electrolyte : 
Comments : 
Cable : standard
Electrode surface area : 0,001 cm²
Characteristic mass : 0,001 g
Equivalent Weight : 0,000 g/eq.
Density : 0,000 g/cm3
Record Ece
Text export
   Mode : Standard
   Time format : Elapsed
Cycle Definition : Charge/Discharge alternance
Ei (V)              0,000               
vs.                 Emeas               
ti (h:m:s)          0:00:0,0000         
dti (s)             1,0000              
dE/dt               100,000             
dE/dt unit          mV/s                
E1 (V)              -0,030              
vs.                 Ref                 
t1 (h:m:s)          0:00:0,0000         
dt1 (s)             0,0100              
Step percent        50                  
N                   10                  
E range min (V)     -10,000             
E range max (V)     10,000              
I Range             Auto                
I Range min         Unset               
I Range max         Unset               
I Range init        Unset               
Bandwidth           5                   
E2 (V)              1,600               
vs.                 Ref                 
t2 (h:m:s)          0:00:0,0000         
dt2 (s)             0,1000              
nc cycles           1000                
nr                  1                   
Reverse Scan        1                   
Ef (V)              0,000               
vs.                 Eoc                 
tf (h:m:s)          0:00:0,0000         
dtf (s)             0,1000              

Number of loops : 1
Loop 0 from point number 0 to 222

mode	ox/red	error	control changes	Ns changes	counter inc.	time/s	control/V	Ewe/V	<I>/mA	cycle number	(Q-Qo)/C	I Range	<Ece>/V	P/W	Ewe-Ece/V	
2	0	0	1	0	0	3,289600104471901E+000	8,7894440E-001	8,7869531E-001	-2,604324994466466E-003	1,000000000000000E+000	-9,8251155E-007	42	8,8308001E-001	-2,2884083E-006	-4,3846965E-003
2	0	0	1	0	0	3,955800087642274E+000	8,1232005E-001	8,1211144E-001	-7,623703322329901E-003	1,000000000000000E+000	-4,1709131E-006	42	9,6455085E-001	-6,1912965E-006	-1,5243942E-001
2	0	0	1	0	0	4,652000070054783E+000	7,4270433E-001	7,4256736E-001	-1,781105707961123E-002	1,000000000000000E+000	-1,2827830E-005	41	1,1130826E+000	-1,3225909E-005	-3,7051529E-001
2	0	0	1	0	0	5,318200053225155E+000	6,7608011E-001	6,7589504E-001	-1,881983602747855E-002	1,000000000000000E+000	-2,6347127E-005	41	1,1943469E+000	-1,2720234E-005	-5,1845187E-001
2	0	0	1	0	0	5,984400036395527E+000	6,0946244E-001	6,0930401E-001	-1,009976906204299E-002	1,000000000000000E+000	-3,5813504E-005	41	1,1678017E+000	-6,1538299E-006	-5,5849773E-001
2	0	0	1	0	0	6,650700019563374E+000	5,4283375E-001	5,4267430E-001	-5,759741674773861E-003	1,000000000000000E+000	-4,1011033E-005	41	1,1499892E+000	-3,1256639E-006	-6,0731494E-001
2	0	0	1	0	0	7,347000001973356E+000	4,7320250E-001	4,7297674E-001	-3,742552808751094E-003	1,000000000000000E+000	-4,4256249E-005	42	1,1405017E+000	-1,7701404E-006	-6,6752499E-001
2	0	0	1	0	0	8,013199985143729E+000	4,0658486E-001	4,0634662E-001	-3,039692387196868E-003	1,000000000000000E+000	-4,6475514E-005	42	1,1388066E+000	-1,2351687E-006	-7,3245996E-001
2	0	0	1	0	0	8,679399968314101E+000	3,3996060E-001	3,3971021E-001	-3,082734614674426E-003	1,000000000000000E+000	-4,8476530E-005	42	1,1442617E+000	-1,0472364E-006	-8,0455148E-001
2	0	0	1	0	0	9,345599951484473E+000	2,7334300E-001	2,7308187E-001	-4,782977860375653E-003	1,000000000000000E+000	-5,0946004E-005	42	1,1683661E+000	-1,3061446E-006	-8,9528418E-001
2	0	0	1	0	0	1,004179993389698E+001	2,0372058E-001	2,0346493E-001	-1,218661783254402E-002	1,000000000000000E+000	-5,6404555E-005	41	1,2568967E+000	-2,4795493E-006	-1,0534317E+000
2	0	0	1	0	0	1,070819991706230E+001	1,3708299E-001	1,3682282E-001	-1,587445319184505E-002	1,000000000000000E+000	-6,6242144E-005	41	1,3326067E+000	-2,1719875E-006	-1,1957839E+000
2	0	0	1	0	0	1,137439990023267E+001	7,0463143E-002	7,0206054E-002	-2,635582752481455E-002	1,000000000000000E+000	-7,9575206E-005	41	1,4659364E+000	-1,8503387E-006	-1,3957304E+000
2	0	0	1	0	0	1,204059988340305E+001	3,8410840E-003	3,5945496E-003	-3,516046142048901E-002	1,000000000000000E+000	-1,0051547E-004	41	1,6088350E+000	-1,2638603E-007	-1,6052405E+000
2	1	0	1	0	0	1,269239986693719E+001	1,5092344E-003	1,4309102E-003	2,004101433541383E-002	1,000000000000000E+000	-1,1494771E-004	41	1,1871052E+000	2,8676892E-008	-1,1856743E+000
2	1	0	1	0	0	1,335859985010757E+001	6,8126850E-002	6,8076096E-002	2,234174911371098E-002	1,000000000000000E+000	-1,0035146E-004	41	9,6635216E-001	1,5209391E-006	-8,9827609E-001
2	1	0	1	0	0	1,402479983327794E+001	1,3475114E-001	1,3472627E-001	1,439718218975408E-002	1,000000000000000E+000	-8,8176406E-005	41	9,1049743E-001	1,9396787E-006	-7,7577114E-001
2	1	0	1	0	0	1,469119981644326E+001	2,0138875E-001	2,0135649E-001	1,132241986922196E-002	1,000000000000000E+000	-7,9620142E-005	41	8,7467039E-001	2,2798426E-006	-6,7331392E-001
2	1	0	1	0	0	1,535739979961363E+001	2,6800635E-001	2,6794544E-001	5,003548887553680E-003	1,000000000000000E+000	-7,3963791E-005	41	8,9256024E-001	1,3406781E-006	-6,2461483E-001
2	1	0	1	0	0	1,605359978202614E+001	3,3762875E-001	3,3763143E-001	1,839753799238163E-003	1,000000000000000E+000	-7,1787392E-005	42	9,1429818E-001	6,2115873E-007	-5,7666671E-001
2	1	0	1	0	0	1,671979976519651E+001	4,0424860E-001	4,0425256E-001	1,102232084575036E-003	1,000000000000000E+000	-7,0866590E-005	42	9,2197132E-001	4,4558013E-007	-5,1771879E-001
2	1	0	1	0	0	1,738599974836688E+001	4,7087064E-001	4,7084233E-001	1,013452793787159E-003	1,000000000000000E+000	-7,0171052E-005	42	9,2300284E-001	4,7717646E-007	-4,5216051E-001
2	1	0	1	0	0	1,805239973153220E+001	5,3750825E-001	5,3748596E-001	1,093321908718428E-003	1,000000000000000E+000	-6,9472226E-005	42	9,2076069E-001	5,8764516E-007	-3,8327473E-001
2	1	0	1	0	0	1,871859971470258E+001	6,0412812E-001	6,0410398E-001	1,362736185387351E-003	1,000000000000000E+000	-6,8660789E-005	42	9,1499418E-001	8,2323436E-007	-3,1089020E-001
2	1	0	1	0	0	1,938479969787295E+001	6,7075014E-001	6,7074376E-001	1,835686562204963E-003	1,000000000000000E+000	-6,7592307E-005	42	9,0476978E-001	1,2312753E-006	-2,3402601E-001
2	1	0	1	0	0	2,005099968104332E+001	7,3736781E-001	7,3737401E-001	2,462644493900740E-003	1,000000000000000E+000	-6,6177017E-005	42	8,9061260E-001	1,8158901E-006	-1,5323859E-001
2	1	0	1	0	0	2,071729966421117E+001	8,0399865E-001	8,0403686E-001	3,960048389970633E-003	1,000000000000000E+000	-6,4093707E-005	42	8,6516547E-001	3,1840248E-006	-6,1128616E-002
2	1	0	1	0	0	2,138359964737901E+001	8,7062961E-001	8,7061429E-001	5,902166541844146E-003	1,000000000000000E+000	-6,0800732E-005	42	8,3034122E-001	5,1385105E-006	4,0273070E-002
2	1	0	1	0	0	2,204979963054939E+001	9,3724734E-001	9,3720675E-001	7,397974097564500E-003	1,000000000000000E+000	-5,6317826E-005	42	7,9759431E-001	6,9334315E-006	1,3961244E-001
2	1	0	1	0	0	2,271599961371976E+001	1,0038716E+000	1,0038494E+000	8,642888340139043E-003	1,000000000000000E+000	-5,0972787E-005	42	7,6781923E-001	8,6761584E-006	2,3603016E-001
2	1	0	1	0	0	2,338219959689013E+001	1,0704892E+000	1,0704503E+000	9,911783990585097E-003	1,000000000000000E+000	-4,4785098E-005	42	7,3859537E-001	1,0610072E-005	3,3185494E-001
2	1	0	1	0	0	2,407849957930011E+001	1,1401204E+000	1,1400609E+000	1,102477488044995E-002	1,000000000000000E+000	-3,7450100E-005	41	7,1077603E-001	1,2568915E-005	4,2928487E-001
2	1	0	1	0	0	2,474479956246796E+001	1,2067492E+000	1,2067034E+000	1,215050724616999E-002	1,000000000000000E+000	-2,9658460E-005	41	6,8526667E-001	1,4662059E-005	5,2143675E-001
2	1	0	1	0	0	2,541099954563833E+001	1,2733667E+000	1,2733475E+000	1,324442430732714E-002	1,000000000000000E+000	-2,1122078E-005	41	6,6203213E-001	1,6864755E-005	6,1131537E-001
2	1	0	1	0	0	2,607719952880871E+001	1,3399912E+000	1,3399609E+000	1,422694653327883E-002	1,000000000000000E+000	-1,1899945E-005	41	6,4194518E-001	1,9063553E-005	6,9801575E-001
2	1	0	1	0	0	2,674339951197908E+001	1,4066087E+000	1,4065938E+000	1,541785063245705E-002	1,000000000000000E+000	-1,9823208E-006	41	6,2256277E-001	2,1686654E-005	7,8403103E-001
2	1	0	1	0	0	2,740969949514692E+001	1,4732374E+000	1,4732311E+000	1,794218443420860E-002	1,000000000000000E+000	9,0833355E-006	41	5,9436435E-001	2,6432983E-005	8,7886673E-001
2	1	0	1	0	0	2,807599947831477E+001	1,5398707E+000	1,5398468E+000	2,525124710541407E-002	1,000000000000000E+000	2,3108774E-005	41	5,2999657E-001	3,8883052E-005	1,0098503E+000
2	1	0	1	0	1	2,867919946307666E+001	1,5996596E+000	1,5995061E+000	4,358934064706155E-002	1,000000000000000E+000	4,3391105E-005	41	3,8390005E-001	6,9721420E-005	1,2156061E+000
2	1	0	1	0	1	2,933039944662596E+001	1,5345407E+000	1,5344690E+000	8,460565032059497E-003	1,000000000000000E+000	5,5991382E-005	41	6,6112012E-001	1,2982475E-005	8,7334889E-001
2	1	0	1	0	1	3,002669942903594E+001	1,4649140E+000	1,4647051E+000	2,915349457563332E-003	1,000000000000000E+000	5,9457758E-005	42	7,2781980E-001	4,2701272E-006	7,3688531E-001
2	1	0	1	0	1	3,069299941220379E+001	1,3982805E+000	1,3980738E+000	1,303018876094330E-003	1,000000000000000E+000	6,0782593E-005	42	7,5671357E-001	1,8217165E-006	6,4136022E-001
2	1	0	1	0	1	3,138919939461630E+001	1,3286628E+000	1,3283678E+000	3,483199528616842E-004	1,000000000000000E+000	6,1353421E-005	43	7,7749491E-001	4,6269702E-007	5,5087292E-001
2	0	0	1	0	1	3,205539937778667E+001	1,2620407E+000	1,2618328E+000	-1,527316197661576E-004	1,000000000000000E+000	6,1430335E-005	43	7,9290634E-001	-1,9272177E-007	4,6892649E-001
2	0	0	1	0	1	3,272159936095704E+001	1,1954230E+000	1,1952379E+000	-6,215406843051770E-004	1,000000000000000E+000	6,1168183E-005	43	8,0725968E-001	-7,4288897E-007	3,8797820E-001
2	0	0	1	0	1	3,341779934336955E+001	1,1258006E+000	1,1255671E+000	-1,101849222152458E-003	1,000000000000000E+000	6,0563772E-005	42	8,2204950E-001	-1,2402052E-006	3,0351758E-001
2	0	0	1	0	1	3,408419932653487E+001	1,0591631E+000	1,0589275E+000	-1,675309379300514E-003	1,000000000000000E+000	5,9635335E-005	42	8,3815938E-001	-1,7740313E-006	2,2076815E-001
2	0	0	1	0	1	3,475039930970524E+001	9,9254316E-001	9,9230069E-001	-2,475348586424002E-003	1,000000000000000E+000	5,8260106E-005	42	8,5791641E-001	-2,4562901E-006	1,3438427E-001
2	0	0	1	0	1	3,536339929421956E+001	9,3124437E-001	9,3099779E-001	-3,580022063929510E-003	2,000000000000000E+000	5,6418994E-005	42	8,8199693E-001	-3,3329927E-006	4,9000859E-002
2	0	0	1	0	1	3,602959927738993E+001	8,6462021E-001	8,6437547E-001	-5,618555029973368E-003	2,000000000000000E+000	5,3409309E-005	42	9,1999274E-001	-4,8565412E-006	-5,5617273E-002
2	0	0	1	0	1	3,669579926056031E+001	7,9800248E-001	7,9779458E-001	-9,707279022583504E-003	2,000000000000000E+000	4,8468504E-005	42	9,8280591E-001	-7,7444147E-006	-1,8501133E-001
2	0	0	1	0	1	3,739199924297282E+001	7,2838008E-001	7,2820228E-001	-2,040694054138159E-002	2,000000000000000E+000	3,8567352E-005	41	1,1146667E+000	-1,4860380E-005	-3,8646442E-001
2	0	0	1	0	1	3,805819922614319E+001	6,6176248E-001	6,6157413E-001	-3,748739262778211E-002	2,000000000000000E+000	1,8571218E-005	41	1,3244081E+000	-2,4800689E-005	-6,6283393E-001
2	0	0	1	0	1	3,872449920931103E+001	5,9513384E-001	5,9494710E-001	-2,039222471564373E-002	2,000000000000000E+000	-1,8080777E-006	41	1,2758844E+000	-1,2132295E-005	-6,8093729E-001
2	0	0	1	0	1	3,939079919247888E+001	5,2850068E-001	5,2834362E-001	-9,318907283112521E-003	2,000000000000000E+000	-1,1112317E-005	41	1,2172660E+000	-4,9235850E-006	-6,8892235E-001
2	0	0	1	0	1	4,005699917564925E+001	4,6188304E-001	4,6172351E-001	-5,216202610799678E-003	2,000000000000000E+000	-1,5828602E-005	41	1,1927150E+000	-2,4084434E-006	-7,3099154E-001
2	0	0	1	0	1	4,075319915806176E+001	3,9226064E-001	3,9204204E-001	-3,844131355172038E-003	2,000000000000000E+000	-1,8925832E-005	42	1,1844124E+000	-1,5070611E-006	-7,9237032E-001
2	0	0	1	0	1	4,141939914123213E+001	3,2564303E-001	3,2540473E-001	-4,180308656149864E-003	2,000000000000000E+000	-2,1487194E-005	42	1,1917620E+000	-1,3602922E-006	-8,6635721E-001
2	0	0	1	0	1	4,208569912439998E+001	2,5901210E-001	2,5876117E-001	-7,552517044987134E-003	2,000000000000000E+000	-2,5158775E-005	42	1,2343457E+000	-1,9542981E-006	-9,7558451E-001
2	0	0	1	0	1	4,278199910680996E+001	1,8938304E-001	1,8911625E-001	-1,498383517203378E-002	2,000000000000000E+000	-3,3119562E-005	41	1,3300847E+000	-2,8336867E-006	-1,1409684E+000
2	0	0	1	0	1	4,344819908998034E+001	1,2276321E-001	1,2250789E-001	-1,750506307278757E-002	2,000000000000000E+000	-4,3694134E-005	41	1,3894168E+000	-2,1445082E-006	-1,2669089E+000
2	0	0	1	0	1	4,411439907315071E+001	5,6141149E-002	5,5893268E-002	-3,066085931441442E-002	2,000000000000000E+000	-5,9296872E-005	41	1,5428509E+000	-1,7137356E-006	-1,4869576E+000
2	0	0	1	0	1	4,478059905632108E+001	-1,0476479E-002	-1,0739486E-002	-4,373569525212861E-002	2,000000000000000E+000	-8,2022940E-005	41	1,7046716E+000	4,6969888E-007	-1,7154111E+000
2	1	0	1	0	1	4,542239904010785E+001	1,4827428E-002	1,4780557E-002	2,220839880742059E-002	2,000000000000000E+000	-8,8494220E-005	41	1,1289399E+000	3,2825250E-007	-1,1141593E+000
2	1	0	1	0	1	4,608869902327569E+001	8,1460610E-002	8,1432760E-002	2,203076154820451E-002	2,000000000000000E+000	-7,2946284E-005	41	9,3724674E-001	1,7940257E-006	-8,5581398E-001
2	1	0	1	0	1	4,675499900644354E+001	1,4808930E-001	1,4804947E-001	1,460066187652831E-002	2,000000000000000E+000	-6,1110644E-005	41	8,9460194E-001	2,1616204E-006	-7,4655247E-001
2	1	0	1	0	1	4,742119898961391E+001	2,1470694E-001	2,1465713E-001	1,121086256676316E-002	2,000000000000000E+000	-5,2417312E-005	41	8,6624354E-001	2,4064916E-006	-6,5158641E-001
2	1	0	1	0	1	4,808739897278429E+001	2,8133124E-001	2,8124860E-001	4,495216570720672E-003	2,000000000000000E+000	-4,7127862E-005	41	8,9372146E-001	1,2642734E-006	-6,1247289E-001
2	1	0	1	0	1	4,878359895519679E+001	3,5094690E-001	3,5095727E-001	1,825586259632327E-003	2,000000000000000E+000	-4,5104905E-005	42	9,1325712E-001	6,4070275E-007	-5,6229985E-001
2	1	0	1	0	1	4,944979893836717E+001	4,1757122E-001	4,1759875E-001	1,242743725172156E-003	2,000000000000000E+000	-4,4129993E-005	42	9,1920799E-001	5,1896825E-007	-5,0160921E-001
2	1	0	1	0	1	5,011619892153249E+001	4,8420885E-001	4,8422554E-001	1,173349816398559E-003	2,000000000000000E+000	-4,3329557E-005	42	9,1932052E-001	5,6816594E-007	-4,3509498E-001
2	1	0	1	0	1	5,078239890470286E+001	5,5082643E-001	5,5081886E-001	1,273372947885598E-003	2,000000000000000E+000	-4,2513857E-005	42	9,1622841E-001	7,0139782E-007	-3,6540955E-001
2	1	0	1	0	1	5,144859888787323E+001	6,1745065E-001	6,1746049E-001	1,587520702858456E-003	2,000000000000000E+000	-4,1565803E-005	42	9,0942466E-001	9,8023133E-007	-2,9196417E-001
2	1	0	1	0	1	5,211479887104360E+001	6,8406838E-001	6,8406880E-001	2,035178373039723E-003	2,000000000000000E+000	-4,0352148E-005	42	8,9893192E-001	1,3922021E-006	-2,1486312E-001
2	1	0	1	0	1	5,278109885421145E+001	7,5069928E-001	7,5073528E-001	2,689614934018588E-003	2,000000000000000E+000	-3,8801638E-005	42	8,8469303E-001	2,0191887E-006	-1,3395774E-001
2	1	0	1	0	1	5,344739883737930E+001	8,1733030E-001	8,1736946E-001	4,338079821081434E-003	2,000000000000000E+000	-3,6503101E-005	42	8,5798693E-001	3,5458140E-006	-4,0617466E-002
2	1	0	1	0	1	5,411359882054967E+001	8,8394791E-001	8,8395518E-001	6,277909752716013E-003	2,000000000000000E+000	-3,2954180E-005	42	8,2395023E-001	5,5493911E-006	6,0004950E-002
2	1	0	1	0	1	5,477979880372004E+001	9,5056981E-001	9,5055932E-001	7,631758344915918E-003	2,000000000000000E+000	-2,8274619E-005	42	7,9389012E-001	7,2544390E-006	1,5666920E-001
2	1	0	1	0	1	5,544599878689041E+001	1,0171897E+000	1,0171562E+000	8,825404097591194E-003	2,000000000000000E+000	-2,2785494E-005	42	7,6624399E-001	8,9768146E-006	2,5091225E-001
2	1	0	1	0	1	5,611239877005573E+001	1,0838273E+000	1,0838044E+000	9,963687671379853E-003	2,000000000000000E+000	-1,6505634E-005	42	7,3957729E-001	1,0798688E-005	3,4422708E-001
2	1	0	1	0	1	5,680859875246824E+001	1,1534498E+000	1,1534047E+000	1,090382257302380E-002	2,000000000000000E+000	-9,1890151E-006	41	7,1470922E-001	1,2576520E-005	4,3869549E-001
2	1	0	1	0	1	5,747479873563861E+001	1,2200675E+000	1,2200274E+000	1,185033350470030E-002	2,000000000000000E+000	-1,5375222E-006	41	6,9174331E-001	1,4457733E-005	5,2828413E-001
2	1	0	1	0	1	5,814099871880899E+001	1,2866915E+000	1,2866690E+000	1,274257185298863E-002	2,000000000000000E+000	6,7314695E-006	41	6,7082423E-001	1,6395472E-005	6,1584479E-001
2	1	0	1	0	1	5,880719870197936E+001	1,3533093E+000	1,3533043E+000	1,354124956637335E-002	2,000000000000000E+000	1,5555948E-005	41	6,5245390E-001	1,8325431E-005	7,0085037E-001
2	1	0	1	0	1	5,947359868514468E+001	1,4199470E+000	1,4199717E+000	1,473312566954360E-002	2,000000000000000E+000	2,5009753E-005	41	6,3303471E-001	2,0920621E-005	7,8693700E-001
2	1	0	1	0	1	6,013979866831505E+001	1,4865711E+000	1,4865671E+000	1,766243967711595E-002	2,000000000000000E+000	3,5713416E-005	41	6,0112309E-001	2,6256403E-005	8,8544405E-001
2	1	0	1	0	1	6,080599865148542E+001	1,5531888E+000	1,5531933E+000	2,669705168768738E-002	2,000000000000000E+000	5,0004255E-005	41	5,2241212E-001	4,1465682E-005	1,0307813E+000
2	1	0	1	0	1	6,147219863465580E+001	1,6198064E+000	1,6197829E+000	5,604320291327747E-002	2,000000000000000E+000	7,5854237E-005	41	2,9550210E-001	9,0777823E-005	1,3242809E+000
2	1	0	1	0	1	6,216839861706831E+001	1,6894288E+000	1,6894290E+000	1,498540701777169E-001	2,000000000000000E+000	1,4202623E-004	40	-3,7239689E-001	2,5316782E-004	2,0618260E+000
2	1	0	1	0	0	6,282079860058730E+001	1,6451236E+000	1,6450559E+000	3,476288549352942E-002	2,000000000000000E+000	2,0361015E-004	41	4,5549363E-001	5,7186891E-005	1,1895623E+000
2	1	0	1	0	0	6,348699858375767E+001	1,5785015E+000	1,5784364E+000	8,599592950210733E-003	2,000000000000000E+000	2,1549490E-004	41	6,8945926E-001	1,3573910E-005	8,8897711E-001
2	1	0	1	0	0	6,418319856617018E+001	1,5088835E+000	1,5087276E+000	3,033325829278007E-003	2,000000000000000E+000	2,1906784E-004	42	7,5763118E-001	4,5764623E-006	7,5109637E-001
2	1	0	1	0	0	6,484939854934055E+001	1,4422594E+000	1,4420820E+000	1,365105887792734E-003	2,000000000000000E+000	2,2044798E-004	42	7,8648746E-001	1,9685947E-006	6,5559459E-001
2	1	0	1	0	0	6,551559853251092E+001	1,3756418E+000	1,3754629E+000	5,145997544834316E-004	2,000000000000000E+000	2,2104071E-004	42	8,0503064E-001	7,0781289E-007	5,7043225E-001
2	0	0	1	0	0	6,621189851492090E+001	1,3060104E+000	1,3058087E+000	-1,192449850932439E-004	2,000000000000000E+000	2,2116148E-004	43	8,2021874E-001	-1,5571113E-007	4,8558992E-001
2	0	0	1	0	0	6,687819849808875E+001	1,2393817E+000	1,2392009E+000	-6,073915408679907E-004	2,000000000000000E+000	2,2091754E-004	43	8,3300143E-001	-7,5268019E-007	4,0619951E-001
2	0	0	1	0	0	6,757439848050126E+001	1,1697615E+000	1,1695205E+000	-1,068513040818090E-003	2,000000000000000E+000	2,2033222E-004	42	8,4552240E-001	-1,2496479E-006	3,2399809E-001
2	0	0	1	0	0	6,824059846367163E+001	1,1031418E+000	1,1029217E+000	-1,582297216052422E-003	2,000000000000000E+000	2,1944396E-004	42	8,5858655E-001	-1,7451500E-006	2,4433517E-001
2	0	0	1	0	0	6,890679844684200E+001	1,0365241E+000	1,0363024E+000	-2,256265402473104E-003	2,000000000000000E+000	2,1816982E-004	42	8,7375450E-001	-2,3381733E-006	1,6254795E-001
2	0	0	1	0	0	6,957299843001238E+001	9,6989983E-001	9,6967852E-001	-3,192546615948068E-003	2,000000000000000E+000	2,1636908E-004	42	8,9297956E-001	-3,0957440E-006	7,6698959E-002
2	0	0	1	0	0	7,019269841435744E+001	9,0793031E-001	9,0772343E-001	-4,532558428952217E-003	3,000000000000000E+000	2,1399739E-004	42	9,1727549E-001	-4,1143094E-006	-9,5520616E-003
2	0	0	1	0	0	7,085899839752528E+001	8,4130168E-001	8,4110957E-001	-6,922709529963489E-003	3,000000000000000E+000	2,1024366E-004	42	9,5530087E-001	-5,8227574E-006	-1,1419129E-001
2	0	0	1	0	0	7,155519837993779E+001	7,7168149E-001	7,7148813E-001	-1,190251645562232E-002	3,000000000000000E+000	2,0388278E-004	41	1,0222039E+000	-9,1826505E-006	-2,5071579E-001
2	0	0	1	0	0	7,222139836310816E+001	7,0506167E-001	7,0488214E-001	-2,487334979750905E-002	3,000000000000000E+000	1,9235109E-004	41	1,1619171E+000	-1,7532780E-005	-4,5703495E-001
2	0	0	1	0	0	7,288759834627854E+001	6,3844407E-001	6,3828242E-001	-5,827307266935633E-002	3,000000000000000E+000	1,6474223E-004	41	1,4882922E+000	-3,7194677E-005	-8,5000980E-001
2	0	0	1	0	0	7,355389832944638E+001	5,7181078E-001	5,7165825E-001	-3,183609591211009E-002	3,000000000000000E+000	1,3282378E-004	41	1,3911531E+000	-1,8199367E-005	-8,1949484E-001
2	0	0	1	0	0	7,422019831261423E+001	5,0518215E-001	5,0501388E-001	-1,595853676473069E-002	3,000000000000000E+000	1,1784369E-004	41	1,3075190E+000	-8,0592827E-006	-8,0250508E-001
2	0	0	1	0	0	7,488639829578460E+001	4,3856454E-001	4,3842173E-001	-1,017875240483167E-002	3,000000000000000E+000	1,0933121E-004	41	1,2789309E+000	-4,4625863E-006	-8,4050918E-001
2	0	0	1	0	0	7,555259827895497E+001	3,7194026E-001	3,7178734E-001	-7,811451463512933E-003	3,000000000000000E+000	1,0338580E-004	41	1,2703463E+000	-2,9041987E-006	-8,9855897E-001
2	0	0	1	0	0	7,621879826212535E+001	3,0532262E-001	3,0514160E-001	-8,483988848015933E-003	3,000000000000000E+000	9,8123659E-005	41	1,2865373E+000	-2,5888180E-006	-9,8139572E-001
2	0	0	1	0	0	7,688509824529319E+001	2,3869392E-001	2,3846664E-001	-1,471920131338516E-002	3,000000000000000E+000	9,0703084E-005	41	1,3591253E+000	-3,5100384E-006	-1,1206586E+000
2	0	0	1	0	0	7,755139822846104E+001	1,7206071E-001	1,7180039E-001	-1,849714276325026E-002	3,000000000000000E+000	7,8523735E-005	41	1,4265845E+000	-3,1778163E-006	-1,2547841E+000
2	0	0	1	0	0	7,821759821163141E+001	1,0544312E-001	1,0519858E-001	-2,209974214992672E-002	3,000000000000000E+000	6,5677283E-005	41	1,4861889E+000	-2,3248615E-006	-1,3809903E+000
2	0	0	1	0	0	7,888379819480178E+001	3,8821053E-002	3,8566265E-002	-3,451708057090019E-002	3,000000000000000E+000	4,6293273E-005	41	1,6279703E+000	-1,3311949E-006	-1,5894041E+000
2	0	0	1	0	0	7,954999817797216E+001	-2,7798802E-002	-2,7971689E-002	-7,691063321776537E-002	3,000000000000000E+000	1,7795594E-005	41	1,9808768E+000	2,1513204E-006	-2,0088484E+000
2	1	0	1	0	0	8,021879816107685E+001	-5,1531969E-003	-5,2604084E-003	4,038837862722860E-002	3,000000000000000E+000	-5,7158477E-006	41	9,6868372E-001	-2,1245937E-007	-9,7394413E-001
2	1	0	1	0	0	8,088499814424722E+001	6,1471093E-002	6,1437022E-002	2,942775088047528E-002	3,000000000000000E+000	1,5787988E-005	41	8,3819616E-001	1,8079534E-006	-7,7675915E-001
2	1	0	1	0	0	8,155119812741759E+001	1,2808871E-001	1,2802328E-001	1,890666483190023E-002	3,000000000000000E+000	3,1889176E-005	41	8,1892830E-001	2,4204933E-006	-6,9090503E-001
2	1	0	1	0	0	8,221749811058544E+001	1,9471741E-001	1,9466303E-001	1,422814728534835E-002	3,000000000000000E+000	4,2960390E-005	41	8,0642360E-001	2,7696942E-006	-6,1176056E-001
2	1	0	1	0	0	8,288379809375328E+001	2,6135060E-001	2,6129559E-001	7,216460075414183E-003	3,000000000000000E+000	5,0478528E-005	41	8,3494127E-001	1,8856292E-006	-5,7364571E-001
2	1	0	1	0	0	8,357999807616579E+001	3,3096632E-001	3,3093393E-001	2,526355437098695E-003	3,000000000000000E+000	5,3520394E-005	42	8,7147748E-001	8,3605676E-007	-5,4054356E-001
2	1	0	1	0	0	8,424619805933617E+001	3,9759061E-001	3,9759174E-001	1,364524340354523E-003	3,000000000000000E+000	5,4728942E-005	42	8,8512355E-001	5,4252359E-007	-4,8753181E-001
2	1	0	1	0	0	8,491239804250654E+001	4,6420822E-001	4,6420613E-001	1,138179120523946E-003	3,000000000000000E+000	5,5548637E-005	42	8,8945568E-001	5,2834974E-007	-4,2524955E-001
2	1	0	1	0	0	8,557869802567438E+001	5,3083920E-001	5,3084058E-001	1,159785461205275E-003	3,000000000000000E+000	5,6312114E-005	42	8,8957530E-001	6,1566118E-007	-3,5873473E-001
2	1	0	1	0	0	8,624499800884223E+001	5,9747010E-001	5,9744447E-001	1,361492471672214E-003	3,000000000000000E+000	5,7146270E-005	42	8,8628531E-001	8,1341614E-007	-2,8884083E-001
2	1	0	1	0	0	8,691119799201260E+001	6,6408771E-001	6,6409487E-001	1,747394389664148E-003	3,000000000000000E+000	5,8185204E-005	42	8,7897575E-001	1,1604357E-006	-2,1488088E-001
2	1	0	1	0	0	8,757739797518298E+001	7,3070973E-001	7,3072457E-001	2,252813375398826E-003	3,000000000000000E+000	5,9513877E-005	42	8,6849928E-001	1,6461861E-006	-1,3777471E-001
2	1	0	1	0	0	8,824359795835335E+001	7,9732960E-001	7,9731339E-001	3,593337769716681E-003	3,000000000000000E+000	6,1397448E-005	42	8,4793824E-001	2,8650163E-006	-5,0624847E-002
2	1	0	1	0	0	8,890999794151867E+001	8,6396718E-001	8,6395812E-001	5,576275449522453E-003	3,000000000000000E+000	6,4454223E-005	42	8,1684059E-001	4,8176685E-006	4,7117531E-002
2	1	0	1	0	0	8,957619792468904E+001	9,3059152E-001	9,3055105E-001	7,128623090866398E-003	3,000000000000000E+000	6,8741792E-005	42	7,8851169E-001	6,6335479E-006	1,4203936E-001
2	1	0	1	0	0	9,024239790785941E+001	9,9720925E-001	9,9717855E-001	8,284938017885768E-003	3,000000000000000E+000	7,3884949E-005	42	7,6515424E-001	8,2615625E-006	2,3202431E-001
2	1	0	1	0	0	9,090859789102979E+001	1,0638267E+000	1,0637660E+000	9,450613348225528E-003	3,000000000000000E+000	7,9808240E-005	42	7,4242634E-001	1,0053242E-005	3,2133967E-001
2	1	0	1	0	0	9,160479787344229E+001	1,1334491E+000	1,1334132E+000	1,038481996315788E-002	3,000000000000000E+000	8,6767781E-005	41	7,2158295E-001	1,1770292E-005	4,1183025E-001
2	1	0	1	0	0	9,227119785660761E+001	1,2000867E+000	1,2000316E+000	1,126987443978908E-002	3,000000000000000E+000	9,4051356E-005	41	7,0242417E-001	1,3524206E-005	4,9760747E-001
2	1	0	1	0	0	9,293739783977799E+001	1,2667110E+000	1,2666813E+000	1,209501599534671E-002	3,000000000000000E+000	1,0191169E-004	41	6,8467212E-001	1,5320531E-005	5,8200920E-001
2	1	0	1	0	0	9,360359782294836E+001	1,3333286E+000	1,3332862E+000	1,281313095563497E-002	3,000000000000000E+000	1,1028582E-004	41	6,6895556E-001	1,7083570E-005	6,6433060E-001
2	1	0	1	0	0	9,426979780611873E+001	1,3999486E+000	1,3999480E+000	1,368292834653359E-002	3,000000000000000E+000	1,1916050E-004	41	6,5337479E-001	1,9155388E-005	7,4657321E-001
2	1	0	1	0	0	9,493599778928910E+001	1,4665706E+000	1,4665807E+000	1,562087710594973E-002	3,000000000000000E+000	1,2889229E-004	41	6,3017011E-001	2,2909278E-005	8,3641064E-001
2	1	0	1	0	0	9,560239777245442E+001	1,5332081E+000	1,5332041E+000	2,154637609217086E-002	3,000000000000000E+000	1,4098082E-004	41	5,7591486E-001	3,3034990E-005	9,5728922E-001
2	1	0	1	0	0	9,626859775562480E+001	1,5998281E+000	1,5998201E+000	4,136516140691843E-002	3,000000000000000E+000	1,6075821E-004	41	4,1762722E-001	6,6176821E-005	1,1821929E+000
2	1	0	1	0	0	9,694979773841624E+001	1,6679506E+000	1,6679510E+000	1,059042824187304E-001	3,000000000000000E+000	2,0710926E-004	41	-5,3360570E-002	1,7664315E-004	1,7213116E+000
2	1	0	1	0	1	9,758699772231921E+001	1,6681224E+000	1,6681203E+000	6,030734437681928E-002	3,000000000000000E+000	2,8264918E-004	40	2,6502526E-001	1,0059990E-004	1,4030950E+000
2	1	0	1	0	1	9,828319770473172E+001	1,5984998E+000	1,5984474E+000	1,064396133865900E-002	3,000000000000000E+000	3,0169616E-004	41	6,7226321E-001	1,7013812E-005	9,2618424E-001
2	1	0	1	0	1	9,897959768713918E+001	1,5288641E+000	1,5286844E+000	2,844196622342622E-003	3,000000000000000E+000	3,0564243E-004	42	7,6210672E-001	4,3478790E-006	7,6657766E-001
2	1	0	1	0	1	9,964579767030955E+001	1,4622401E+000	1,4620713E+000	1,040818497317512E-003	3,000000000000000E+000	3,0681884E-004	42	7,9419714E-001	1,5217508E-006	6,6787416E-001
2	1	0	1	0	1	1,003419976527221E+002	1,3926243E+000	1,3924181E+000	2,615326410076899E-004	3,000000000000000E+000	3,0723895E-004	43	8,1326926E-001	3,6416279E-007	5,7914889E-001
2	0	0	1	0	1	1,010081976358924E+002	1,3260001E+000	1,3258042E+000	-2,110974327548204E-004	3,000000000000000E+000	3,0724556E-004	43	8,2676148E-001	-2,7987386E-007	4,9904275E-001
2	0	0	1	0	1	1,016743976190628E+002	1,2593824E+000	1,2592115E+000	-5,873950870348655E-004	3,000000000000000E+000	3,0697559E-004	43	8,3821630E-001	-7,3965469E-007	4,2099524E-001
2	0	0	1	0	1	1,023406976022306E+002	1,1927537E+000	1,1925986E+000	-9,575261483643809E-004	3,000000000000000E+000	3,0645973E-004	43	8,4916764E-001	-1,1419444E-006	3,4343094E-001
2	0	0	1	0	1	1,030369975846406E+002	1,1231225E+000	1,1228820E+000	-1,384684198392994E-003	3,000000000000000E+000	3,0564392E-004	42	8,6085176E-001	-1,5548370E-006	2,6203024E-001
2	0	0	1	0	1	1,037031975678110E+002	1,0565046E+000	1,0563080E+000	-1,904968507735276E-003	3,000000000000000E+000	3,0454571E-004	42	8,7373942E-001	-2,0122336E-006	1,8256861E-001
2	0	0	1	0	1	1,043693975509814E+002	9,8988050E-001	9,8965800E-001	-2,679262799114760E-003	3,000000000000000E+000	3,0302425E-004	42	8,9017296E-001	-2,6515538E-006	9,9485040E-002
2	0	0	1	0	1	1,049889975353290E+002	9,2791992E-001	9,2770332E-001	-3,730886162772379E-003	4,000000000000000E+000	3,0105366E-004	42	9,1022217E-001	-3,4611555E-006	1,7481148E-002
2	0	0	1	0	1	1,056551975184993E+002	8,6130226E-001	8,6108428E-001	-5,598231445166427E-003	4,000000000000000E+000	2,9799438E-004	42	9,4127071E-001	-4,8205493E-006	-8,0186427E-002
2	0	0	1	0	1	1,063214975016672E+002	7,9467356E-001	7,9448599E-001	-9,119666424690503E-003	4,000000000000000E+000	2,9321911E-004	42	9,9127138E-001	-7,2454473E-006	-1,9678539E-001
2	0	0	1	0	1	1,070177974840772E+002	7,2504228E-001	7,2485781E-001	-1,822438588212355E-002	4,000000000000000E+000	2,8421590E-004	41	1,0960978E+000	-1,3210089E-005	-3,7124002E-001
2	0	0	1	0	1	1,076839974672475E+002	6,5842468E-001	6,5826869E-001	-4,756213251505748E-002	4,000000000000000E+000	2,6396231E-004	41	1,3744910E+000	-3,1308664E-005	-7,1622229E-001
2	0	0	1	0	1	1,083501974504179E+002	5,9180039E-001	5,9161210E-001	-3,982298460489668E-002	4,000000000000000E+000	2,2962256E-004	41	1,4195458E+000	-2,3559760E-005	-8,2793367E-001
2	0	0	1	0	1	1,090163974335883E+002	5,2518272E-001	5,2502543E-001	-1,839164430447965E-002	4,000000000000000E+000	2,1156974E-004	41	1,3051307E+000	-9,6560807E-006	-7,8010529E-001
2	0	0	1	0	1	1,096826974167561E+002	4,5855406E-001	4,5841226E-001	-1,113071204731637E-002	4,000000000000000E+000	2,0201027E-004	41	1,2678652E+000	-5,1024549E-006	-8,0945289E-001
2	0	0	1	0	1	1,103489973999240E+002	3,9192089E-001	3,9179733E-001	-8,080149169939189E-003	4,000000000000000E+000	1,9567028E-004	41	1,2543432E+000	-3,1657810E-006	-8,6254585E-001
2	0	0	1	0	1	1,110151973830943E+002	3,2530326E-001	3,2511386E-001	-7,586243528797880E-003	4,000000000000000E+000	1,9053675E-004	41	1,2595341E+000	-2,4663930E-006	-9,3442023E-001
2	0	0	1	0	1	1,116813973662647E+002	2,5868121E-001	2,5845087E-001	-1,092025645172028E-002	4,000000000000000E+000	1,8450027E-004	41	1,3029164E+000	-2,8223496E-006	-1,0444655E+000
2	0	0	1	0	1	1,123475973494351E+002	1,9206133E-001	1,9181606E-001	-2,007857478524935E-002	4,000000000000000E+000	1,7403073E-004	41	1,4075435E+000	-3,8513931E-006	-1,2157274E+000
2	0	0	1	0	1	1,130139973326004E+002	1,2542373E-001	1,2515914E-001	-1,999579173837612E-002	4,000000000000000E+000	1,6116945E-004	41	1,4410585E+000	-2,5026561E-006	-1,3158994E+000
2	0	0	1	0	1	1,136801973157708E+002	5,8801673E-002	5,8573660E-002	-3,279431467035421E-002	4,000000000000000E+000	1,4418059E-004	41	1,5804882E+000	-1,9208831E-006	-1,5219146E+000
2	0	0	1	0	1	1,143463972989412E+002	-7,8181690E-003	-8,0759255E-003	-4,413858846072408E-002	4,000000000000000E+000	1,2004156E-004	41	1,7168306E+000	3,5645996E-007	-1,7249066E+000
2	1	0	1	0	1	1,149851972828037E+002	-2,8131923E-002	-2,8268790E-002	4,332730423054454E-002	4,000000000000000E+000	7,4262614E-005	40	1,1095192E+000	-1,2248105E-006	-1,1377881E+000
2	1	0	1	0	1	1,156813972652162E+002	4,1490469E-002	4,1419443E-002	3,084214800153492E-002	4,000000000000000E+000	1,0060112E-004	41	8,6512995E-001	1,2774645E-006	-8,2371050E-001
2	1	0	1	0	1	1,163475972483866E+002	1,0810808E-001	1,0802775E-001	2,223285290293970E-002	4,000000000000000E+000	1,1900679E-004	41	8,0756539E-001	2,4017650E-006	-6,9953763E-001
2	1	0	1	0	1	1,170137972315570E+002	1,7473014E-001	1,7467287E-001	1,601415147223247E-002	4,000000000000000E+000	1,3141990E-004	41	7,9844207E-001	2,7972378E-006	-6,2376916E-001
2	1	0	1	0	1	1,176799972147273E+002	2,4135000E-001	2,4129641E-001	1,016638906535487E-002	4,000000000000000E+000	1,4035210E-004	41	8,1192547E-001	2,4531132E-006	-5,7062906E-001
2	1	0	1	0	1	1,183762971971373E+002	3,1097904E-001	3,1094813E-001	3,428630811221106E-003	4,000000000000000E+000	1,4464823E-004	42	8,5862750E-001	1,0661264E-006	-5,4767936E-001
2	1	0	1	0	1	1,190425971803052E+002	3,7761000E-001	3,7759608E-001	1,628898198945245E-003	4,000000000000000E+000	1,4620539E-004	42	8,7706864E-001	6,1506557E-007	-4,9947256E-001
2	1	0	1	0	1	1,197087971634755E+002	4,4422764E-001	4,4422358E-001	1,212241111736923E-003	4,000000000000000E+000	1,4712394E-004	42	8,8365448E-001	5,3850607E-007	-4,3943089E-001
2	1	0	1	0	1	1,203749971466459E+002	5,1084965E-001	5,1084149E-001	1,167096676738724E-003	4,000000000000000E+000	1,4791472E-004	42	8,8505465E-001	5,9620140E-007	-3,7421316E-001
2	1	0	1	0	1	1,210411971298163E+002	5,7746941E-001	5,7745951E-001	1,291765999885109E-003	4,000000000000000E+000	1,4872981E-004	42	8,8314682E-001	7,4594254E-007	-3,0568731E-001
2	1	0	1	0	1	1,217075971129816E+002	6,4410710E-001	6,4412570E-001	1,619075730008288E-003	4,000000000000000E+000	1,4969859E-004	42	8,7743014E-001	1,0428882E-006	-2,3330444E-001
2	1	0	1	0	1	1,223737970961520E+002	7,1073133E-001	7,1074778E-001	2,058270155365575E-003	4,000000000000000E+000	1,5092887E-004	42	8,6845374E-001	1,4629110E-006	-1,5770596E-001
2	1	0	1	0	1	1,230399970793223E+002	7,7734905E-001	7,7734721E-001	3,057425191674464E-003	4,000000000000000E+000	1,5257436E-004	42	8,5242760E-001	2,3766809E-006	-7,5080395E-002
2	1	0	1	0	1	1,237061970624927E+002	8,4396666E-001	8,4398890E-001	4,962891177937662E-003	4,000000000000000E+000	1,5523506E-004	42	8,2357508E-001	4,1886251E-006	2,0413816E-002
2	1	0	1	0	1	1,243723970456631E+002	9,1059095E-001	9,1059810E-001	6,755459236803422E-003	4,000000000000000E+000	1,5918935E-004	42	7,9355556E-001	6,1515084E-006	1,1704254E-001
2	1	0	1	0	1	1,250387970288284E+002	9,7722858E-001	9,7720087E-001	7,957398952286136E-003	4,000000000000000E+000	1,6410922E-004	42	7,6999581E-001	7,7759769E-006	2,0720506E-001
2	1	0	1	0	1	1,257049970119988E+002	1,0438461E+000	1,0438160E+000	9,157381480725091E-003	4,000000000000000E+000	1,6981574E-004	42	7,4761176E-001	9,5586211E-006	2,9620421E-001
2	1	0	1	0	1	1,264011969944113E+002	1,1134684E+000	1,1134189E+000	1,019570866896630E-002	4,000000000000000E+000	1,7660520E-004	41	7,2637779E-001	1,1352095E-005	3,8704115E-001
2	1	0	1	0	1	1,270673969775817E+002	1,1800883E+000	1,1800390E+000	1,111607539723444E-002	4,000000000000000E+000	1,8377499E-004	41	7,0718837E-001	1,3117403E-005	4,7285068E-001
2	1	0	1	0	1	1,277335969607520E+002	1,2467104E+000	1,2467017E+000	1,201616197325731E-002	4,000000000000000E+000	1,9155203E-004	41	6,8914902E-001	1,4980570E-005	5,5755270E-001
2	1	0	1	0	1	1,283999969439174E+002	1,3133481E+000	1,3132868E+000	1,277726059747187E-002	4,000000000000000E+000	1,9988770E-004	41	6,7329156E-001	1,6780208E-005	6,3999522E-001
2	1	0	1	0	1	1,290661969270877E+002	1,3799679E+000	1,3799640E+000	1,355283411204747E-002	4,000000000000000E+000	2,0871975E-004	41	6,5865177E-001	1,8702423E-005	7,2131222E-001
2	1	0	1	0	1	1,297323969102581E+002	1,4465898E+000	1,4465953E+000	1,498577820845243E-002	4,000000000000000E+000	2,1823427E-004	41	6,3978428E-001	2,1678357E-005	8,0681103E-001
2	1	0	1	0	1	1,303985968934285E+002	1,5132076E+000	1,5132141E+000	1,909454937758942E-002	4,000000000000000E+000	2,2941170E-004	41	6,0026759E-001	2,8894141E-005	9,1294652E-001
2	1	0	1	0	1	1,310648968765963E+002	1,5798408E+000	1,5798104E+000	3,268122333247031E-002	4,000000000000000E+000	2,4586223E-004	41	4,8850232E-001	5,1630137E-005	1,0913081E+000
2	1	0	1	0	1	1,317311968597642E+002	1,6464694E+000	1,6464349E+000	7,672938366215076E-002	4,000000000000000E+000	2,7975705E-004	41	1,5937006E-001	1,2632993E-004	1,4870648E+000
2	1	0	1	0	0	1,323833968432882E+002	1,6881030E+000	1,6880814E+000	1,097234814013723E-001	4,000000000000000E+000	3,5770866E-004	40	-8,7482803E-002	1,8522216E-004	1,7755642E+000
2	1	0	1	0	0	1,330795968257007E+002	1,6184804E+000	1,6184082E+000	1,645859237034114E-002	4,000000000000000E+000	3,9014657E-004	41	6,2076324E-001	2,6636721E-005	9,9764496E-001
2	1	0	1	0	0	1,337757968081132E+002	1,5488625E+000	1,5486587E+000	3,901182380267459E-003	4,000000000000000E+000	3,9598162E-004	42	7,5059068E-001	6,0416000E-006	7,9806805E-001
2	1	0	1	0	0	1,344419967912836E+002	1,4822406E+000	1,4820516E+000	1,351152141422354E-003	4,000000000000000E+000	3,9754581E-004	42	7,9085571E-001	2,0024772E-006	6,9119591E-001
2	1	0	1	0	0	1,351083967744489E+002	1,4156030E+000	1,4154528E+000	4,241643199227791E-004	4,000000000000000E+000	3,9809183E-004	42	8,1184262E-001	6,0038457E-007	6,0361022E-001
2	0	0	1	0	0	1,358045967568614E+002	1,3459808E+000	1,3457621E+000	-1,151711719238023E-004	4,000000000000000E+000	3,9818638E-004	43	8,2687259E-001	-1,5499300E-007	5,1888955E-001
2	0	0	1	0	0	1,364707967400318E+002	1,2793629E+000	1,2791803E+000	-5,012034731930372E-004	4,000000000000000E+000	3,9797497E-004	43	8,3859181E-001	-6,4112959E-007	4,4058847E-001
2	0	0	1	0	0	1,371369967232022E+002	1,2127410E+000	1,2125720E+000	-8,686946242879557E-004	4,000000000000000E+000	3,9751799E-004	43	8,4953636E-001	-1,0533547E-006	3,6303562E-001
2	0	0	1	0	0	1,378331967056147E+002	1,1431231E+000	1,1428624E+000	-1,265635022806931E-003	4,000000000000000E+000	3,9677438E-004	42	8,6085665E-001	-1,4464467E-006	2,8200579E-001
2	0	0	1	0	0	1,384994966887825E+002	1,0764920E+000	1,0762860E+000	-1,745206562352631E-003	4,000000000000000E+000	3,9576821E-004	42	8,7311786E-001	-1,8783413E-006	2,0316809E-001
2	0	0	1	0	0	1,391657966719504E+002	1,0098611E+000	1,0096223E+000	-2,428595045789350E-003	4,000000000000000E+000	3,9438048E-004	42	8,8816756E-001	-2,4519638E-006	1,2145478E-001
2	0	0	1	0	0	1,397853966562980E+002	9,4790047E-001	9,4769055E-001	-3,352364799503443E-003	5,000000000000000E+000	3,9259999E-004	42	9,0630835E-001	-3,1770044E-006	4,1382194E-002
2	0	0	1	0	0	1,404515966394683E+002	8,8128287E-001	8,8107848E-001	-4,953013712059811E-003	5,000000000000000E+000	3,8987127E-004	42	9,3379128E-001	-4,3639939E-006	-5,2712798E-002
2	0	0	1	0	0	1,411177966226387E+002	8,1466311E-001	8,1447744E-001	-7,839888280995785E-003	5,000000000000000E+000	3,8570727E-004	42	9,7664547E-001	-6,3854122E-006	-1,6216803E-001
2	0	0	1	0	0	1,418139966050512E+002	7,4504286E-001	7,4490929E-001	-1,463623576972717E-002	5,000000000000000E+000	3,7821860E-004	41	1,0598409E+000	-1,0902668E-005	-3,1493163E-001
2	0	0	1	0	0	1,424802965882191E+002	6,7841190E-001	6,7826772E-001	-3,586132560285382E-002	5,000000000000000E+000	3,6278425E-004	41	1,2680094E+000	-2,4323579E-005	-5,8974171E-001
2	0	0	1	0	0	1,431465965713869E+002	6,1178100E-001	6,1162776E-001	-5,031118621903341E-002	5,000000000000000E+000	3,2906487E-004	41	1,4713432E+000	-3,0771716E-005	-8,5971540E-001
2	0	0	1	0	0	1,438127965545573E+002	5,4516339E-001	5,4501009E-001	-2,214762131694614E-002	5,000000000000000E+000	3,0625024E-004	41	1,3249577E+000	-1,2070677E-005	-7,7994764E-001
2	0	0	1	0	0	1,444789965377277E+002	4,7854134E-001	4,7842336E-001	-1,255041246105440E-002	5,000000000000000E+000	2,9513901E-004	41	1,2741027E+000	-6,0044104E-006	-7,9567933E-001
2	0	0	1	0	0	1,451451965208980E+002	4,1192147E-001	4,1183272E-001	-8,620314132086790E-003	5,000000000000000E+000	2,8818441E-004	41	1,2548401E+000	-3,5501273E-006	-8,4300745E-001
2	0	0	1	0	0	1,458115965040633E+002	3,4528387E-001	3,4513220E-001	-7,327087221902747E-003	5,000000000000000E+000	2,8292005E-004	41	1,2530662E+000	-2,5288136E-006	-9,0793395E-001
2	0	0	1	0	0	1,464777964872337E+002	2,7866182E-001	2,7846256E-001	-9,465325049757528E-003	5,000000000000000E+000	2,7746786E-004	41	1,2833143E+000	-2,6357386E-006	-1,0048518E+000
2	0	0	1	0	0	1,471439964704041E+002	2,1204197E-001	2,1180855E-001	-1,771606572280043E-002	5,000000000000000E+000	2,6896110E-004	41	1,3742291E+000	-3,7524142E-006	-1,1624205E+000
2	0	0	1	0	0	1,478101964535745E+002	1,4542435E-001	1,4521646E-001	-1,893120437781953E-002	5,000000000000000E+000	2,5606062E-004	41	1,4208457E+000	-2,7491226E-006	-1,2756293E+000
2	0	0	1	0	0	1,484763964367448E+002	7,8800060E-002	7,8560159E-002	-2,825741879498242E-002	5,000000000000000E+000	2,4114912E-004	41	1,5284624E+000	-2,2199074E-006	-1,4499023E+000
2	0	0	1	0	0	1,491427964199102E+002	1,2162456E-002	1,1936103E-002	-3,659920546615747E-002	5,000000000000000E+000	2,1859298E-004	41	1,6445798E+000	-4,3685188E-007	-1,6326437E+000
2	0	0	1	0	0	1,497813964037778E+002	-4,8132543E-002	-4,8540931E-002	-1,518315633326948E-001	5,000000000000000E+000	1,6614186E-004	40	2,5333767E+000	7,3700453E-006	-2,5819175E+000
2	1	0	1	0	0	1,504775963861903E+002	2,1489857E-002	2,1448689E-002	3,254991740412588E-002	5,000000000000000E+000	1,8455241E-004	41	9,0414757E-001	6,9815303E-007	-8,8269889E-001
2	1	0	1	0	0	1,511439963693556E+002	8,8127464E-002	8,8073686E-002	2,606316767261901E-002	5,000000000000000E+000	2,0465879E-004	41	8,0362761E-001	2,2954791E-006	-7,1555394E-001
2	1	0	1	0	0	1,518101963525260E+002	1,5474953E-001	1,5471299E-001	1,777131863198953E-002	5,000000000000000E+000	2,1868375E-004	41	7,9727894E-001	2,7494539E-006	-6,4256597E-001
